# Energy [eV]    dos_E    dos_T
   -5.000000000    0.025452002    0.000000000
   -4.989989990    0.023321654    0.000000000
   -4.979979980    0.021526215    0.000000000
   -4.969969970    0.019952767    0.000000000
   -4.959959960    0.018548577    0.000000000
   -4.949949950    0.017289547    0.000000000
   -4.939939940    0.016158332    0.000000000
   -4.929929930    0.015149087    0.000000000
   -4.919919920    0.014270719    0.000000000
   -4.909909910    0.013534661    0.000000000
   -4.899899900    0.012943889    0.000000000
   -4.889889890    0.012492845    0.000000000
   -4.879879880    0.012172430    0.000000000
   -4.869869870    0.011973608    0.000000000
   -4.859859860    0.011887915    0.000000000
   -4.849849850    0.011905873    0.000000000
   -4.839839840    0.012015705    0.000000000
   -4.829829830    0.012205125    0.000000000
   -4.819819820    0.012465482    0.000000000
   -4.809809810    0.012793113    0.000000000
   -4.799799800    0.013185277   -0.000000001
   -4.789789790    0.013634960    0.000000000
   -4.779779780    0.014133557    0.000000000
   -4.769769770    0.014680158    0.000000000
   -4.759759760    0.015279244    0.000000000
   -4.749749750    0.015925474    0.000000000
   -4.739739740    0.016602204    0.000000000
   -4.729729730    0.017302365    0.000000000
   -4.719719720    0.018042246    0.000000000
   -4.709709710    0.018843118    0.000000000
   -4.699699700    0.019702293    0.000000000
   -4.689689690    0.020590519    0.000000000
   -4.679679680    0.021480188    0.000000000
   -4.669669670    0.022377589    0.000000000
   -4.659659660    0.023320435    0.000000000
   -4.649649650    0.024342484    0.000000000
   -4.639639640    0.025444939    0.000000000
   -4.629629630    0.026592398    0.000000000
   -4.619619620    0.027740737    0.000000000
   -4.609609610    0.028880280    0.000000000
   -4.599599600    0.030044444    0.000000000
   -4.589589590    0.031282534    0.000000000
   -4.579579580    0.032629175    0.000000000
   -4.569569570    0.034077671    0.000000000
   -4.559559560    0.035583405    0.000000000
   -4.549549550    0.037107418    0.000000000
   -4.539539540    0.038641114    0.000000000
   -4.529529530    0.040197757    0.000000000
   -4.519519520    0.041800354    0.000000000
   -4.509509510    0.043457295    0.000000000
   -4.499499499    0.045133412    0.000000000
   -4.489489489    0.046770169    0.000000000
   -4.479479479    0.048310657    0.000000000
   -4.469469469    0.049679245    0.000000000
   -4.459459459    0.050781489    0.000000000
   -4.449449449    0.051547932    0.000000000
   -4.439439439    0.052001457    0.000000000
   -4.429429429    0.052339443    0.000000000
   -4.419419419    0.052935026    0.000000000
   -4.409409409    0.054198350    0.000000000
   -4.399399399    0.056425712    0.000000000
   -4.389389389    0.059717772    0.000000000
   -4.379379379    0.063957031    0.000000000
   -4.369369369    0.068856281    0.000000000
   -4.359359359    0.074052032    0.000000000
   -4.349349349    0.079204106    0.000000000
   -4.339339339    0.084107455    0.000000000
   -4.329329329    0.088749054    0.000000000
   -4.319319319    0.093235209    0.000000000
   -4.309309309    0.097682266    0.000000000
   -4.299299299    0.102179923    0.000000000
   -4.289289289    0.106795529    0.000000000
   -4.279279279    0.111583222    0.000000000
   -4.269269269    0.116605707    0.000000000
   -4.259259259    0.121878298    0.000000000
   -4.249249249    0.127254394    0.000000000
   -4.239239239    0.132367004    0.000000000
   -4.229229229    0.136566480   -0.000000388
   -4.219219219    0.138854951    0.000000000
   -4.209209209    0.138024062    0.000000000
   -4.199199199    0.133193861    0.000000000
   -4.189189189    0.124501853    0.000000000
   -4.179179179    0.113247770    0.000000000
   -4.169169169    0.101195264    0.000000000
   -4.159159159    0.089706464    0.000000000
   -4.149149149    0.079439389    0.000000000
   -4.139139139    0.070518146    0.000000000
   -4.129129129    0.062800424    0.000000000
   -4.119119119    0.056093089    0.000000000
   -4.109109109    0.050266312    0.000000000
   -4.099099099    0.045242033    0.000000000
   -4.089089089    0.040944421    0.000000000
   -4.079079079    0.037304053    0.000000000
   -4.069069069    0.034281374    0.000000000
   -4.059059059    0.031849150    0.000000000
   -4.049049049    0.029958224    0.000000000
   -4.039039039    0.028522030    0.000000000
   -4.029029029    0.027408122    0.000000000
   -4.019019019    0.026443878    0.000000000
   -4.009009009    0.025476320    0.000000000
   -3.998998999    0.024452061    0.000000000
   -3.988988989    0.023420311    0.000000000
   -3.978978979    0.022466540    0.000000000
   -3.968968969    0.021666024    0.000000000
   -3.958958959    0.021070239    0.000000000
   -3.948948949    0.020702303    0.000000000
   -3.938938939    0.020563824    0.000000000
   -3.928928929    0.020640670    0.000000000
   -3.918918919    0.020886354    0.000000000
   -3.908908909    0.021197533    0.000000000
   -3.898898899    0.021435492    0.000000000
   -3.888888889    0.021510889    0.000000000
   -3.878878879    0.021453483    0.000000000
   -3.868868869    0.021385960    0.000000000
   -3.858858859    0.021434081    0.000000000
   -3.848848849    0.021672442    0.000000000
   -3.838838839    0.022127622    0.000000000
   -3.828828829    0.022773937    0.000000000
   -3.818818819    0.023507074    0.000000000
   -3.808808809    0.024159134    0.000000000
   -3.798798799    0.024593869    0.000000000
   -3.788788789    0.024806149    0.000000000
   -3.778778779    0.024909954    0.000000000
   -3.768768769    0.025056996    0.000000000
   -3.758758759    0.025396426    0.000000000
   -3.748748749    0.026050983    0.000000000
   -3.738738739    0.027063269    0.000000000
   -3.728728729    0.028346366    0.000000000
   -3.718718719    0.029694948    0.000000000
   -3.708708709    0.030891611    0.000000000
   -3.698698699    0.031849863    0.000000000
   -3.688688689    0.032662677    0.000000000
   -3.678678679    0.033536918    0.000000000
   -3.668668669    0.034670372    0.000000000
   -3.658658659    0.036124195    0.000000000
   -3.648648649    0.037791948    0.000000000
   -3.638638639    0.039493986    0.000000000
   -3.628628629    0.041109362    0.000000000
   -3.618618619    0.042673721    0.000000000
   -3.608608609    0.044377558    0.000000000
   -3.598598599    0.046402076    0.000000000
   -3.588588589    0.048735022    0.000000000
   -3.578578579    0.051200068    0.000000000
   -3.568568569    0.053658330    0.000000000
   -3.558558559    0.056121149    0.000000000
   -3.548548549    0.058627212    0.000000000
   -3.538538539    0.061013673    0.000000000
   -3.528528529    0.062878524    0.000000000
   -3.518518519    0.063795552    0.000000000
   -3.508508509    0.063549935    0.000000000
   -3.498498498    0.062243894    0.000000000
   -3.488488488    0.060201669    0.000000000
   -3.478478478    0.057706694    0.000000000
   -3.468468468    0.054873317    0.000000000
   -3.458458458    0.051778612    0.000000000
   -3.448448448    0.048617709    0.000000000
   -3.438438438    0.045687503    0.000000000
   -3.428428428    0.043224744    0.000000000
   -3.418418418    0.041229572    0.000000000
   -3.408408408    0.039451059    0.000000000
   -3.398398398    0.037598357    0.000000000
   -3.388388388    0.035577374    0.000000000
   -3.378378378    0.033509703    0.000000000
   -3.368368368    0.031575680    0.000000000
   -3.358358358    0.029902741    0.000000000
   -3.348348348    0.028567541    0.000000000
   -3.338338338    0.027594166    0.000000000
   -3.328328328    0.026902205    0.000000000
   -3.318318318    0.026296796    0.000000000
   -3.308308308    0.025567840    0.000000000
   -3.298298298    0.024629814    0.000000000
   -3.288288288    0.023563825    0.000000000
   -3.278278278    0.022534771    0.000000000
   -3.268268268    0.021672084    0.000000000
   -3.258258258    0.021007152    0.000000000
   -3.248248248    0.020504695    0.000000000
   -3.238238238    0.020135986    0.000000000
   -3.228228228    0.019901481    0.000000000
   -3.218218218    0.019788313    0.000000000
   -3.208208208    0.019737732    0.000000000
   -3.198198198    0.019667025    0.000000000
   -3.188188188    0.019509500    0.000000000
   -3.178178178    0.019234617    0.000000000
   -3.168168168    0.018859425    0.000000000
   -3.158158158    0.018458067    0.000000000
   -3.148148148    0.018139332    0.000000000
   -3.138138138    0.017991032    0.000000000
   -3.128128128    0.018040551    0.000000000
   -3.118118118    0.018258603    0.000000000
   -3.108108108    0.018592093    0.000000000
   -3.098098098    0.018998513    0.000000000
   -3.088088088    0.019453666    0.000000000
   -3.078078078    0.019933146    0.000000000
   -3.068068068    0.020402023    0.000000000
   -3.058058058    0.020834362    0.000000144
   -3.048048048    0.021235228    0.000000000
   -3.038038038    0.021638060    0.000000000
   -3.028028028    0.022106405    0.000000000
   -3.018018018    0.022739204    0.000000000
   -3.008008008    0.023640670    0.000000000
   -2.997997998    0.024883515    0.000000000
   -2.987987988    0.026515590    0.000000000
   -2.977977978    0.028589830    0.000000000
   -2.967967968    0.031163889    0.000000000
   -2.957957958    0.034276428    0.000000000
   -2.947947948    0.037952600    0.000000000
   -2.937937938    0.042231637    0.000000000
   -2.927927928    0.047144953    0.000000000
   -2.917917918    0.052597371    0.000000000
   -2.907907908    0.058193669    0.000000000
   -2.897897898    0.063196626    0.000000000
   -2.887887888    0.066808709    0.000000000
   -2.877877878    0.068581143    0.000000000
   -2.867867868    0.068521125    0.000000000
   -2.857857858    0.066907561    0.000000000
   -2.847847848    0.064125374    0.000000000
   -2.837837838    0.060553579    0.000000000
   -2.827827828    0.056469201    0.000000000
   -2.817817818    0.052072553    0.000000000
   -2.807807808    0.047600973    0.000000000
   -2.797797798    0.043339602    0.000000000
   -2.787787788    0.039511909    0.000000000
   -2.777777778    0.036201938    0.000000000
   -2.767767768    0.033381481    0.000000000
   -2.757757758    0.030994702    0.000000000
   -2.747747748    0.029013297    0.000000000
   -2.737737738    0.027428925    0.000000000
   -2.727727728    0.026226700    0.000000000
   -2.717717718    0.025378188    0.000000000
   -2.707707708    0.024849228    0.000000000
   -2.697697698    0.024608103    0.000000000
   -2.687687688    0.024629432    0.000000000
   -2.677677678    0.024894887    0.000000000
   -2.667667668    0.025392695    0.000000000
   -2.657657658    0.026118155    0.000000000
   -2.647647648    0.027077001    0.000000000
   -2.637637638    0.028288665    0.000000000
   -2.627627628    0.029781747    0.000000000
   -2.617617618    0.031579560    0.000000000
   -2.607607608    0.033682217    0.000000000
   -2.597597598    0.036058207    0.000000000
   -2.587587588    0.038663388    0.000000000
   -2.577577578    0.041485739    0.000000000
   -2.567567568    0.044578062    0.000000000
   -2.557557558    0.048052412    0.000000000
   -2.547547548    0.052051424    0.000000000
   -2.537537538    0.056700075    0.000000000
   -2.527527528    0.062025444    0.000000000
   -2.517517518    0.067901144    0.000000000
   -2.507507508    0.074126985    0.000000000
   -2.497497497    0.080634619    0.000000000
   -2.487487487    0.087618433    0.000000000
   -2.477477477    0.095448784   -0.000000003
   -2.467467467    0.104430578    0.000000000
   -2.457457457    0.114513711    0.000000000
   -2.447447447    0.125162153    0.000000417
   -2.437437437    0.135732090    0.000000000
   -2.427427427    0.146207181    0.000000000
   -2.417417417    0.157333747    0.000000000
   -2.407407407    0.169796613    0.000000000
   -2.397397397    0.183446731    0.000000000
   -2.387387387    0.197518482    0.000000000
   -2.377377377    0.211598652    0.000000000
   -2.367367367    0.226110810    0.000000000
   -2.357357357    0.241607837    0.000000000
   -2.347347347    0.257951068    0.000000000
   -2.337337337    0.274564778    0.000000000
   -2.327327327    0.291206516    0.000000000
   -2.317317317    0.307963839    0.000000000
   -2.307307307    0.324668314    0.000000000
   -2.297297297    0.340885591    0.000000000
   -2.287287287    0.356258638    0.000000000
   -2.277277277    0.370364548    0.000000000
   -2.267267267    0.382490019    0.000000000
   -2.257257257    0.391685368    0.000000000
   -2.247247247    0.396726694    0.000000000
   -2.237237237    0.396073939    0.000000000
   -2.227227227    0.388015792    0.000000000
   -2.217217217    0.371101525    0.000000000
   -2.207207207    0.344986499    0.000000000
   -2.197197197    0.311349745    0.000000000
   -2.187187187    0.273957969    0.000000000
   -2.177177177    0.237305849    0.000000000
   -2.167167167    0.204781366    0.000000000
   -2.157157157    0.177842933    0.000000000
   -2.147147147    0.156379243    0.000000000
   -2.137137137    0.139484447    0.000000000
   -2.127127127    0.126116372    0.000000000
   -2.117117117    0.115451939    0.000000000
   -2.107107107    0.106921115    0.000000000
   -2.097097097    0.100080190    0.000000000
   -2.087087087    0.094535335    0.000000000
   -2.077077077    0.089973212    0.000000000
   -2.067067067    0.086181181    0.000000000
   -2.057057057    0.082981958    0.000000000
   -2.047047047    0.080184991    0.000000000
   -2.037037037    0.077659761    0.000000000
   -2.027027027    0.075377537    0.000000000
   -2.017017017    0.073287839    0.000000000
   -2.007007007    0.071265151    0.000000000
   -1.996996997    0.069271607    0.000000000
   -1.986986987    0.067455154    0.000000000
   -1.976976977    0.065986138    0.000000000
   -1.966966967    0.064831285    0.000000000
   -1.956956957    0.063742908    0.000000000
   -1.946946947    0.062481495    0.000000000
   -1.936936937    0.060995429    0.000000000
   -1.926926927    0.059409467    0.000000000
   -1.916916917    0.057946166    0.000000000
   -1.906906907    0.056803410    0.000000000
   -1.896896897    0.056020627    0.000000000
   -1.886886887    0.055490771    0.000000000
   -1.876876877    0.055077833   -0.000000003
   -1.866866867    0.054647192    0.000000000
   -1.856856857    0.054033170    0.000000000
   -1.846846847    0.053116547    0.000000000
   -1.836836837    0.051963754    0.000000000
   -1.826826827    0.050808267    0.000000000
   -1.816816817    0.049871710    0.000000000
   -1.806806807    0.049250219    0.000000000
   -1.796796797    0.048967554    0.000000000
   -1.786786787    0.049041972    0.000000000
   -1.776776777    0.049434134    0.000000000
   -1.766766767    0.049973011    0.000000000
   -1.756756757    0.050397177    0.000000000
   -1.746746747    0.050485680    0.000000000
   -1.736736737    0.050159562    0.000000000
   -1.726726727    0.049518997    0.000000000
   -1.716716717    0.048795729    0.000000000
   -1.706706707    0.048224745    0.000000000
   -1.696696697    0.047970983    0.000000000
   -1.686686687    0.048145548    0.000000000
   -1.676676677    0.048806789    0.000000000
   -1.666666667    0.049924365    0.000000000
   -1.656656657    0.051369820    0.000000000
   -1.646646647    0.052970349    0.000000000
   -1.636636637    0.054573041    0.000000000
   -1.626626627    0.056031424    0.000000000
   -1.616616617    0.057185393    0.000000000
   -1.606606607    0.057965190    0.000000000
   -1.596596597    0.058506398    0.000000000
   -1.586586587    0.059097122    0.000000000
   -1.576576577    0.060022333    0.000000000
   -1.566566567    0.061464862    0.000000000
   -1.556556557    0.063497090    0.000000000
   -1.546546547    0.066111026    0.000000000
   -1.536536537    0.069256436    0.000000000
   -1.526526527    0.072891643    0.000000000
   -1.516516517    0.077022474    0.000000000
   -1.506506507    0.081672232    0.000000000
   -1.496496496    0.086806480    0.000000000
   -1.486486486    0.092319816    0.000000000
   -1.476476476    0.098121994    0.000000000
   -1.466466466    0.104247107    0.000000000
   -1.456456456    0.110913126    0.000000000
   -1.446446446    0.118493682    0.000000000
   -1.436436436    0.127411307    0.000000000
   -1.426426426    0.138056536    0.000000000
   -1.416416416    0.150798594    0.000000000
   -1.406406406    0.166054027    0.000000000
   -1.396396396    0.184359241    0.000000000
   -1.386386386    0.206417922    0.000000000
   -1.376376376    0.233133017    0.000000000
   -1.366366366    0.265653732    0.000000000
   -1.356356356    0.305458660    0.000000000
   -1.346346346    0.354459721    0.000000000
   -1.336336336    0.415033443    0.000000000
   -1.326326326    0.489834563    0.000000000
   -1.316316316    0.581226518    0.000000000
   -1.306306306    0.690065082    0.000000000
   -1.296296296    0.813824460    0.000000000
   -1.286286286    0.945283597    0.000000000
   -1.276276276    1.073791647    0.000000000
   -1.266266266    1.188747261    0.000000000
   -1.256256256    1.281810353    0.000000000
   -1.246246246    1.346161078    0.000000000
   -1.236236236    1.375329970    0.000000000
   -1.226226226    1.364867114    0.000000000
   -1.216216216    1.316600763    0.000000000
   -1.206206206    1.240416011    0.000000000
   -1.196196196    1.150061585    0.000000000
   -1.186186186    1.057219144    0.000000000
   -1.176176176    0.968930985    0.000000000
   -1.166166166    0.888216003    0.000000000
   -1.156156156    0.815796033    0.000000000
   -1.146146146    0.751398941    0.000000000
   -1.136136136    0.694180812    0.000000000
   -1.126126126    0.643178475    0.000000000
   -1.116116116    0.597796283    0.000000000
   -1.106106106    0.557492105    0.000000000
   -1.096096096    0.521486501    0.000000000
   -1.086086086    0.489044143    0.000000000
   -1.076076076    0.459553626    0.000000000
   -1.066066066    0.432648258    0.000000000
   -1.056056056    0.408446753    0.000000000
   -1.046046046    0.386974684    0.000000000
   -1.036036036    0.367367944    0.000000000
   -1.026026026    0.348537125    0.000000000
   -1.016016016    0.330522221    0.000000000
   -1.006006006    0.314217625    0.000000000
   -0.995995996    0.299837125    0.000000000
   -0.985985986    0.286530747    0.000000000
   -0.975975976    0.273509245    0.000000000
   -0.965965966    0.260747073    0.000000000
   -0.955955956    0.248531106    0.000000000
   -0.945945946    0.236973848    0.000000000
   -0.935935936    0.226144835    0.000000000
   -0.925925926    0.216407452    0.000000000
   -0.915915916    0.208110794    0.000000000
   -0.905905906    0.200849457    0.000000000
   -0.895895896    0.193526885    0.000000000
   -0.885885886    0.185412557    0.000000000
   -0.875875876    0.176949498    0.000000000
   -0.865865866    0.169299792    0.000000000
   -0.855855856    0.163169597    0.000000000
   -0.845845846    0.158217263    0.000000000
   -0.835835836    0.153532536    0.000000000
   -0.825825826    0.148508286    0.000000000
   -0.815815816    0.143089349    0.000000000
   -0.805805806    0.137441285    0.000000000
   -0.795795796    0.131750183    0.000000000
   -0.785785786    0.126171553    0.000000000
   -0.775775776    0.120861763    0.000000000
   -0.765765766    0.116154246    0.000000000
   -0.755755756    0.112445094    0.000000000
   -0.745745746    0.109711824    0.000000000
   -0.735735736    0.107296127    0.000000000
   -0.725725726    0.104315568    0.000000000
   -0.715715716    0.100350418    0.000000000
   -0.705705706    0.095759908    0.000000000
   -0.695695696    0.091377922    0.000000000
   -0.685685686    0.087888922    0.000000000
   -0.675675676    0.085395433    0.000000000
   -0.665665666    0.083457509    0.000000000
