# Energy [eV]    dos_E    gamma_E    dos_T
  -20.000000000    0.002385194    2.100315625    0.006650162
  -19.974974975    0.002392861    2.100497413    0.006668956
  -19.949949950    0.002400581    2.100679689    0.006687837
  -19.924924925    0.002408354    2.100862453    0.006706804
  -19.899899900    0.002416181    2.101045709    0.006725859
  -19.874874875    0.002424061    2.101229458    0.006745001
  -19.849849850    0.002431996    2.101413703    0.006764232
  -19.824824825    0.002439986    2.101598445    0.006783552
  -19.799799800    0.002448032    2.101783687    0.006802962
  -19.774774775    0.002456134    2.101969430    0.006822462
  -19.749749750    0.002464293    2.102155677    0.006842053
  -19.724724725    0.002472510    2.102342431    0.006861736
  -19.699699700    0.002480785    2.102529692    0.006881511
  -19.674674675    0.002489118    2.102717464    0.006901379
  -19.649649650    0.002497510    2.102905748    0.006921341
  -19.624624625    0.002505962    2.103094547    0.006941396
  -19.599599600    0.002514475    2.103283862    0.006961547
  -19.574574575    0.002523049    2.103473697    0.006981793
  -19.549549550    0.002531685    2.103664053    0.007002136
  -19.524524525    0.002540383    2.103854932    0.007022575
  -19.499499499    0.002549144    2.104046337    0.007043112
  -19.474474474    0.002557969    2.104238271    0.007063747
  -19.449449449    0.002566859    2.104430734    0.007084482
  -19.424424424    0.002575813    2.104623730    0.007105316
  -19.399399399    0.002584834    2.104817261    0.007126251
  -19.374374374    0.002593921    2.105011329    0.007147286
  -19.349349349    0.002603075    2.105205936    0.007168424
  -19.324324324    0.002612298    2.105401086    0.007189665
  -19.299299299    0.002621589    2.105596779    0.007211009
  -19.274274274    0.002630949    2.105793020    0.007232457
  -19.249249249    0.002640380    2.105989809    0.007254010
  -19.224224224    0.002649882    2.106187149    0.007275669
  -19.199199199    0.002659456    2.106385044    0.007297434
  -19.174174174    0.002669102    2.106583494    0.007319307
  -19.149149149    0.002678822    2.106782503    0.007341288
  -19.124124124    0.002688617    2.106982074    0.007363378
  -19.099099099    0.002698486    2.107182208    0.007385578
  -19.074074074    0.002708431    2.107382908    0.007407888
  -19.049049049    0.002718453    2.107584176    0.007430310
  -19.024024024    0.002728553    2.107786016    0.007452844
  -18.998998999    0.002738732    2.107988429    0.007475492
  -18.973973974    0.002748989    2.108191419    0.007498253
  -18.948948949    0.002759328    2.108394987    0.007521130
  -18.923923924    0.002769747    2.108599137    0.007544122
  -18.898898899    0.002780249    2.108803871    0.007567231
  -18.873873874    0.002790834    2.109009191    0.007590457
  -18.848848849    0.002801504    2.109215100    0.007613802
  -18.823823824    0.002812258    2.109421602    0.007637267
  -18.798798799    0.002823099    2.109628698    0.007660852
  -18.773773774    0.002834027    2.109836391    0.007684559
  -18.748748749    0.002845043    2.110044683    0.007708387
  -18.723723724    0.002856148    2.110253579    0.007732339
  -18.698698699    0.002867344    2.110463080    0.007756416
  -18.673673674    0.002878631    2.110673189    0.007780617
  -18.648648649    0.002890011    2.110883909    0.007804945
  -18.623623624    0.002901485    2.111095242    0.007829401
  -18.598598599    0.002913053    2.111307192    0.007853985
  -18.573573574    0.002924717    2.111519761    0.007878698
  -18.548548549    0.002936478    2.111732952    0.007903541
  -18.523523524    0.002948338    2.111946769    0.007928517
  -18.498498498    0.002960297    2.112161213    0.007953625
  -18.473473473    0.002972356    2.112376287    0.007978866
  -18.448448448    0.002984518    2.112591996    0.008004243
  -18.423423423    0.002996783    2.112808341    0.008029755
  -18.398398398    0.003009153    2.113025325    0.008055405
  -18.373373373    0.003021628    2.113242952    0.008081192
  -18.348348348    0.003034210    2.113461225    0.008107120
  -18.323323323    0.003046902    2.113680145    0.008133188
  -18.298298298    0.003059703    2.113899718    0.008159398
  -18.273273273    0.003072615    2.114119945    0.008185750
  -18.248248248    0.003085640    2.114340829    0.008212248
  -18.223223223    0.003098779    2.114562375    0.008238890
  -18.198198198    0.003112034    2.114784584    0.008265680
  -18.173173173    0.003125406    2.115007460    0.008292617
  -18.148148148    0.003138897    2.115231006    0.008319704
  -18.123123123    0.003152508    2.115455225    0.008346942
  -18.098098098    0.003166241    2.115680120    0.008374331
  -18.073073073    0.003180097    2.115905696    0.008401874
  -18.048048048    0.003194079    2.116131954    0.008429572
  -18.023023023    0.003208187    2.116358898    0.008457426
  -17.997997998    0.003222423    2.116586532    0.008485437
  -17.972972973    0.003236790    2.116814858    0.008513607
  -17.947947948    0.003251288    2.117043880    0.008541938
  -17.922922923    0.003265920    2.117273602    0.008570430
  -17.897897898    0.003280688    2.117504026    0.008599086
  -17.872872873    0.003295593    2.117735157    0.008627907
  -17.847847848    0.003310637    2.117966997    0.008656894
  -17.822822823    0.003325822    2.118199549    0.008686048
  -17.797797798    0.003341150    2.118432818    0.008715373
  -17.772772773    0.003356623    2.118666807    0.008744868
  -17.747747748    0.003372243    2.118901520    0.008774536
  -17.722722723    0.003388012    2.119136959    0.008804378
  -17.697697698    0.003403932    2.119373128    0.008834396
  -17.672672673    0.003420006    2.119610032    0.008864592
  -17.647647648    0.003436235    2.119847673    0.008894968
  -17.622622623    0.003452622    2.120086055    0.008925524
  -17.597597598    0.003469169    2.120325182    0.008956263
  -17.572572573    0.003485878    2.120565057    0.008987187
  -17.547547548    0.003502751    2.120805685    0.009018297
  -17.522522523    0.003519791    2.121047069    0.009049595
  -17.497497497    0.003537001    2.121289212    0.009081083
  -17.472472472    0.003554382    2.121532119    0.009112764
  -17.447447447    0.003571938    2.121775793    0.009144638
  -17.422422422    0.003589671    2.122020237    0.009176709
  -17.397397397    0.003607583    2.122265457    0.009208977
  -17.372372372    0.003625678    2.122511456    0.009241445
  -17.347347347    0.003643957    2.122758237    0.009274115
  -17.322322322    0.003662424    2.123005805    0.009306989
  -17.297297297    0.003681081    2.123254163    0.009340069
  -17.272272272    0.003699932    2.123503316    0.009373357
  -17.247247247    0.003718979    2.123753268    0.009406855
  -17.222222222    0.003738225    2.124004022    0.009440567
  -17.197197197    0.003757674    2.124255583    0.009474493
  -17.172172172    0.003777328    2.124507954    0.009508636
  -17.147147147    0.003797190    2.124761141    0.009542999
  -17.122122122    0.003817265    2.125015146    0.009577583
  -17.097097097    0.003837554    2.125269975    0.009612392
  -17.072072072    0.003858063    2.125525631    0.009647427
  -17.047047047    0.003878793    2.125782119    0.009682692
  -17.022022022    0.003899749    2.126039443    0.009718188
  -16.996996997    0.003920933    2.126297607    0.009753918
  -16.971971972    0.003942351    2.126556616    0.009789886
  -16.946946947    0.003964005    2.126816474    0.009826092
  -16.921921922    0.003985899    2.127077185    0.009862541
  -16.896896897    0.004008038    2.127338755    0.009899235
  -16.871871872    0.004030425    2.127601186    0.009936176
  -16.846846847    0.004053064    2.127864485    0.009973368
  -16.821821822    0.004075959    2.128128654    0.010010813
  -16.796796797    0.004099115    2.128393700    0.010048515
  -16.771771772    0.004122536    2.128659626    0.010086476
  -16.746746747    0.004146226    2.128926438    0.010124699
  -16.721721722    0.004170190    2.129194139    0.010163188
  -16.696696697    0.004194433    2.129462734    0.010201946
  -16.671671672    0.004218959    2.129732229    0.010240975
  -16.646646647    0.004243772    2.130002629    0.010280280
  -16.621621622    0.004268879    2.130273936    0.010319863
  -16.596596597    0.004294284    2.130546158    0.010359728
  -16.571571572    0.004319992    2.130819298    0.010399878
  -16.546546547    0.004346009    2.131093362    0.010440318
  -16.521521522    0.004372339    2.131368354    0.010481049
  -16.496496496    0.004398989    2.131644280    0.010522077
  -16.471471471    0.004425963    2.131921144    0.010563405
  -16.446446446    0.004453268    2.132198951    0.010605037
  -16.421421421    0.004480910    2.132477708    0.010646976
  -16.396396396    0.004508895    2.132757418    0.010689226
  -16.371371371    0.004537228    2.133038087    0.010731793
  -16.346346346    0.004565916    2.133319720    0.010774679
  -16.321321321    0.004594966    2.133602323    0.010817889
  -16.296296296    0.004624385    2.133885900    0.010861427
  -16.271271271    0.004654178    2.134170458    0.010905298
  -16.246246246    0.004684353    2.134456001    0.010949506
  -16.221221221    0.004714917    2.134742535    0.010994056
  -16.196196196    0.004745877    2.135030065    0.011038952
  -16.171171171    0.004777241    2.135318597    0.011084199
  -16.146146146    0.004809016    2.135608137    0.011129802
  -16.121121121    0.004841211    2.135898690    0.011175766
  -16.096096096    0.004873832    2.136190261    0.011222096
  -16.071071071    0.004906889    2.136482857    0.011268797
  -16.046046046    0.004940390    2.136776483    0.011315875
  -16.021021021    0.004974343    2.137071144    0.011363335
  -15.995995996    0.005008757    2.137366848    0.011411182
  -15.970970971    0.005043641    2.137663599    0.011459422
  -15.945945946    0.005079005    2.137961403    0.011508061
  -15.920920921    0.005114858    2.138260267    0.011557105
  -15.895895896    0.005151210    2.138560196    0.011606559
  -15.870870871    0.005188070    2.138861197    0.011656431
  -15.845845846    0.005225450    2.139163276    0.011706726
  -15.820820821    0.005263359    2.139466438    0.011757451
  -15.795795796    0.005301808    2.139770690    0.011808613
  -15.770770771    0.005340809    2.140076038    0.011860217
  -15.745745746    0.005380373    2.140382489    0.011912272
  -15.720720721    0.005420512    2.140690048    0.011964785
  -15.695695696    0.005461237    2.140998723    0.012017762
  -15.670670671    0.005502561    2.141308520    0.012071211
  -15.645645646    0.005544496    2.141619445    0.012125140
  -15.620620621    0.005587057    2.141931504    0.012179556
  -15.595595596    0.005630255    2.142244705    0.012234469
  -15.570570571    0.005674104    2.142559054    0.012289885
  -15.545545546    0.005718620    2.142874558    0.012345813
  -15.520520521    0.005763816    2.143191223    0.012402263
  -15.495495495    0.005809707    2.143509057    0.012459242
  -15.470470470    0.005856308    2.143828066    0.012516761
  -15.445445445    0.005903636    2.144148257    0.012574828
  -15.420420420    0.005951706    2.144469637    0.012633454
  -15.395395395    0.006000535    2.144792214    0.012692647
  -15.370370370    0.006050141    2.145115994    0.012752418
  -15.345345345    0.006100540    2.145440985    0.012812778
  -15.320320320    0.006151752    2.145767194    0.012873736
  -15.295295295    0.006203794    2.146094628    0.012935305
  -15.270270270    0.006256686    2.146423294    0.012997496
  -15.245245245    0.006310448    2.146753201    0.013060319
  -15.220220220    0.006365100    2.147084355    0.013123788
  -15.195195195    0.006420664    2.147416764    0.013187914
  -15.170170170    0.006477160    2.147750435    0.013252709
  -15.145145145    0.006534611    2.148085377    0.013318188
  -15.120120120    0.006593041    2.148421597    0.013384362
  -15.095095095    0.006652472    2.148759103    0.013451247
  -15.070070070    0.006712930    2.149097903    0.013518856
  -15.045045045    0.006774439    2.149438004    0.013587203
  -15.020020020    0.006837025    2.149779416    0.013656305
  -14.994994995    0.006900716    2.150122145    0.013726175
  -14.969969970    0.006965538    2.150466200    0.013796831
  -14.944944945    0.007031521    2.150811590    0.013868288
  -14.919919920    0.007098693    2.151158322    0.013940564
  -14.894894895    0.007167086    2.151506405    0.014013676
  -14.869869870    0.007236730    2.151855847    0.014087642
  -14.844844845    0.007307659    2.152206658    0.014162480
  -14.819819820    0.007379904    2.152558845    0.014238211
  -14.794794795    0.007453502    2.152912417    0.014314853
  -14.769769770    0.007528487    2.153267384    0.014392427
  -14.744744745    0.007604898    2.153623753    0.014470955
  -14.719719720    0.007682771    2.153981534    0.014550458
  -14.694694695    0.007762146    2.154340736    0.014630959
  -14.669669670    0.007843065    2.154701368    0.014712481
  -14.644644645    0.007925569    2.155063439    0.014795048
  -14.619619620    0.008009703    2.155426958    0.014878686
  -14.594594595    0.008095511    2.155791935    0.014963419
  -14.569569570    0.008183040    2.156158378    0.015049276
  -14.544544545    0.008272339    2.156526299    0.015136283
  -14.519519520    0.008363459    2.156895705    0.015224470
  -14.494494494    0.008456450    2.157266607    0.015313866
  -14.469469469    0.008551368    2.157639015    0.015404501
  -14.444444444    0.008648268    2.158012938    0.015496409
  -14.419419419    0.008747208    2.158388387    0.015589621
  -14.394394394    0.008848248    2.158765371    0.015684173
  -14.369369369    0.008951451    2.159143901    0.015780100
  -14.344344344    0.009056881    2.159523986    0.015877439
  -14.319319319    0.009164606    2.159905638    0.015976228
  -14.294294294    0.009274695    2.160288866    0.016076508
  -14.269269269    0.009387220    2.160673681    0.016178320
  -14.244244244    0.009502257    2.161060094    0.016281707
  -14.219219219    0.009619884    2.161448115    0.016386714
  -14.194194194    0.009740182    2.161837756    0.016493387
  -14.169169169    0.009863236    2.162229027    0.016601776
  -14.144144144    0.009989133    2.162621939    0.016711931
  -14.119119119    0.010117965    2.163016503    0.016823904
  -14.094094094    0.010249827    2.163412731    0.016937751
  -14.069069069    0.010384817    2.163810633    0.017053528
  -14.044044044    0.010523038    2.164210223    0.017171296
  -14.019019019    0.010664599    2.164611510    0.017291116
  -13.993993994    0.010809609    2.165014507    0.017413054
  -13.968968969    0.010958187    2.165419225    0.017537177
  -13.943943944    0.011110453    2.165825677    0.017663556
  -13.918918919    0.011266533    2.166233874    0.017792265
  -13.893893894    0.011426561    2.166643829    0.017923382
  -13.868868869    0.011590672    2.167055553    0.018056988
  -13.843843844    0.011759012    2.167469060    0.018193166
  -13.818818819    0.011931731    2.167884362    0.018332007
  -13.793793794    0.012108984    2.168301471    0.018473602
  -13.768768769    0.012290936    2.168720400    0.018618050
  -13.743743744    0.012477758    2.169141162    0.018765452
  -13.718718719    0.012669630    2.169563771    0.018915914
  -13.693693694    0.012866738    2.169988239    0.019069551
  -13.668668669    0.013069279    2.170414579    0.019226478
  -13.643643644    0.013277457    2.170842806    0.019386821
  -13.618618619    0.013491488    2.171272932    0.019550710
  -13.593593594    0.013711597    2.171704971    0.019718281
  -13.568568569    0.013938019    2.172138938    0.019889679
  -13.543543544    0.014171002    2.172574846    0.020065055
  -13.518518519    0.014410806    2.173012709    0.020244570
  -13.493493493    0.014657703    2.173452542    0.020428392
  -13.468468468    0.014911977    2.173894358    0.020616699
  -13.443443443    0.015173931    2.174338174    0.020809678
  -13.418418418    0.015443878    2.174784002    0.021007528
  -13.393393393    0.015722150    2.175231859    0.021210458
  -13.368368368    0.016009096    2.175681759    0.021418690
  -13.343343343    0.016305083    2.176133718    0.021632458
  -13.318318318    0.016610495    2.176587751    0.021852010
  -13.293293293    0.016925740    2.177043873    0.022077610
  -13.268268268    0.017251245    2.177502100    0.022309536
  -13.243243243    0.017587461    2.177962448    0.022548084
  -13.218218218    0.017934863    2.178424933    0.022793569
  -13.193193193    0.018293954    2.178889571    0.023046326
  -13.168168168    0.018665263    2.179356379    0.023306708
  -13.143143143    0.019049348    2.179825373    0.023575095
  -13.118118118    0.019446800    2.180296570    0.023851891
  -13.093093093    0.019858243    2.180769986    0.024137523
  -13.068068068    0.020284337    2.181245640    0.024432453
  -13.043043043    0.020725780    2.181723548    0.024737168
  -13.018018018    0.021183310    2.182203728    0.025052195
  -12.992992993    0.021657711    2.182686197    0.025378092
  -12.967967968    0.022149811    2.183170974    0.025715461
  -12.942942943    0.022660490    2.183658076    0.026064945
  -12.917917918    0.023190678    2.184147521    0.026427237
  -12.892892893    0.023741366    2.184639329    0.026803077
  -12.867867868    0.024313604    2.185133518    0.027193266
  -12.842842843    0.024908506    2.185630107    0.027598664
  -12.817817818    0.025527259    2.186129115    0.028020197
  -12.792792793    0.026171121    2.186630561    0.028458866
  -12.767767768    0.026841435    2.187134465    0.028915752
  -12.742742743    0.027539628    2.187640846    0.029392025
  -12.717717718    0.028267217    2.188149725    0.029888953
  -12.692692693    0.029025823    2.188661123    0.030407909
  -12.667667668    0.029817171    2.189175058    0.030950386
  -12.642642643    0.030643099    2.189691553    0.031518009
  -12.617617618    0.031505571    2.190210628    0.032112545
  -12.592592593    0.032406680    2.190732305    0.032735924
  -12.567567568    0.033348662    2.191256604    0.033390253
  -12.542542543    0.034333905    2.191783548    0.034077839
  -12.517517518    0.035364959    2.192313158    0.034801210
  -12.492492492    0.036444549    2.192845457    0.035563143
  -12.467467467    0.037575589    2.193380468    0.036366690
  -12.442442442    0.038761194    2.193918212    0.037215215
  -12.417417417    0.040004693    2.194458714    0.038112435
  -12.392392392    0.041309646    2.195001996    0.039062457
  -12.367367367    0.042679860    2.195548082    0.040069840
  -12.342342342    0.044119406    2.196096996    0.041139642
  -12.317317317    0.045632634    2.196648763    0.042277501
  -12.292292292    0.047224191    2.197203406    0.043489706
  -12.267267267    0.048899043    2.197760950    0.044783294
  -12.242242242    0.050662487    2.198321421    0.046166157
  -12.217217217    0.052520173    2.198884844    0.047647171
  -12.192192192    0.054478119    2.199451245    0.049236347
  -12.167167167    0.056542727    2.200020650    0.050945007
  -12.142142142    0.058720794    2.200593084    0.052785994
  -12.117117117    0.061019525    2.201168576    0.054773930
  -12.092092092    0.063446535    2.201747152    0.056925507
  -12.067067067    0.066009850    2.202328838    0.059259859
  -12.042042042    0.068717894    2.202913664    0.061798993
  -12.017017017    0.071579470    2.203501657    0.064568325
  -11.991991992    0.074603727    2.204092846    0.067597326
  -11.966966967    0.077800104    2.204687259    0.070920324
  -11.941941942    0.081178253    2.205284926    0.074577485
  -11.916916917    0.084747941    2.205885876    0.078616039
  -11.891891892    0.088518906    2.206490139    0.083091814
  -11.866866867    0.092500675    2.207097746    0.088071167
  -11.841841842    0.096702338    2.207708728    0.093633436
